front_window,rear_window,grid_covers,dem,attenuator,mli,calibration_foil,dead_layer,energy
1.1674148602995037e-13,5.317255819976848e-07,1.2151357468269154e-05,0.00020581100711385397,3.6095053616290756e-165,2.344564031521889e-11,9.516592835656256e-06,0.7001111181285937,2.0
1.8339736722152129e-13,6.624536916699714e-07,1.4323355029843567e-05,0.00023282712081181743,4.7653707151974466e-163,3.3285999839580114e-11,1.1253042001196389e-05,0.7031908878641213,2.01
2.855154923889563e-13,8.216866692670351e-07,1.6829836282742167e-05,0.00026276040249748685,5.768671542078465e-161,4.6939611061258725e-11,1.3263228791666835e-05,0.7062308518309462,2.0199999999999996
4.405880197466038e-13,1.0148163057037111e-06,1.9713498964369377e-05,0.00029585082576116334,6.415577380553404e-159,6.576062229586116e-11,1.5583087728683723e-05,0.7092315594142151,2.0299999999999994
6.740574909852642e-13,1.2480886310007807e-06,2.3021243019040603e-05,0.00033235068410806585,6.567558107222764e-157,9.153960733044254e-11,1.825222357389788e-05,0.7121935543390249,2.039999999999999
1.0226204579392733e-12,1.5287101940968851e-06,2.6804435260771923e-05,0.00037252463354781447,6.199907946482539e-155,1.266295554260955e-10,2.1314157882623614e-05,0.7151173745797804,2.049999999999999
1.5387732463968535e-12,1.8649632100205423e-06,3.111917604628052e-05,0.0004166496939232558,5.407079993267712e-153,1.7410383622697197e-10,2.481657911694715e-05,0.718003552281012,2.0599999999999987
2.297016492556285e-12,2.2663297642153787e-06,3.602656664485496e-05,0.0004650152082566061,4.364138916113284e-151,2.3795306898603075e-10,2.881159518456324e-05,0.7208526136889494,2.0699999999999985
3.402257184372516e-12,2.7436252036679112e-06,4.159297593621101e-05,0.0005179227596435122,3.26538274584523e-149,3.2332904342627487e-10,3.335598720550477e-05,0.7236650790931897,2.0799999999999983
5.001099264494681e-12,3.3091407788517587e-06,4.789030502234353e-05,0.0005756860454781588,2.2687733518250612e-147,4.3684521203778287e-10,3.851146325350556e-05,0.7264414627778264,2.089999999999998
7.29690233611261e-12,3.976795529921166e-06,5.499624830520574e-05,0.0006386307090424771,1.4661289765271968e-145,5.869448094187413e-10,4.434491077258826e-05,0.7291822729814446,2.099999999999998
1.0569719373751995e-11,4.762297335695575e-06,6.299454955919875e-05,0.0007070941287379895,8.825945854213204e-144,7.843493608004765e-10,5.092864633314243e-05,0.7318880118654133,2.1099999999999977
1.5202506097629367e-11,5.683312965493101e-06,7.197525151613966e-05,0.0007814251654774076,4.9570616621029205e-142,1.0426022248493675e-09,5.834066136562253e-05,0.7345591754899451,2.1199999999999974
2.171533514809417e-11,6.759646892580563e-06,8.203493748073105e-05,0.0008619838689834955,2.6014164235748503e-140,1.3787238788656476e-09,6.666486249435696e-05,0.73719625379741,2.1299999999999972
3.080975650716332e-11,8.013428544754651e-06,9.327696350651668e-05,0.000949141143962744,1.277466520668276e-138,1.813997898862309e-09,7.599130508894454e-05,0.7397997306024309,2.139999999999997
2.176602509923601e-11,9.469307583245683e-06,0.00010581167968572974,0.00104327837733008,5.878391020481192e-137,2.3749090112512393e-09,8.641641865636883e-05,0.7423700835882991,2.149999999999997
3.070908267950265e-11,1.1154656716653246e-05,0.0001197566391410061,0.0011447870278563043,2.538259464608383e-135,3.094257192501192e-09,9.804322271316866e-05,0.7449077843092918,2.1599999999999966
4.305032326569863e-11,1.3099781472927023e-05,0.00013523679335227014,0.0012540681797917818,1.0298311990858374e-133,4.012474560375133e-09,0.00011098153180358371,0.747413298198473,2.1699999999999964
5.997524014702483e-11,1.5338136270426652e-05,0.00015238467250768356,0.001371532062186678,3.931130860026432e-132,5.179174723867884e-09,0.00012534814836622613,0.7498870845806075,2.179999999999996
8.304547293841203e-11,1.7906546049758396e-05,0.00017134054963272382,0.001497597535779124,1.4136595104850075e-130,6.654967323683595e-09,0.0001412670421980593,0.7523295966898165,2.189999999999996
1.1430599028490002e-10,2.084543265229185e-05,0.00019225258732561917,0.0016326915494578435,4.794997319390015e-129,8.513573682096462e-09,0.0001588695153198559,0.7547412816916385,2.1999999999999957
1.564192124046434e-10,2.4199045059869847e-05,0.00021527696600968582,0.0017772485684244908,1.5359421867790806e-127,1.084428276747163e-08,0.00017829435111122227,0.7571225807091689,2.2099999999999955
2.128318831320916e-10,2.8015692544043287e-05,0.0002405779927027237,0.0019317099762824928,4.651765308664546e-126,1.3754790037811728e-08,0.00019968794665502516,0.7594739288529765,2.2199999999999953
2.8798152539906656e-10,3.234797971293754e-05,0.0002683281893997984,0.0020965234533649405,1.333575995568234e-124,1.7374465128826793e-08,0.00022320442731003259,0.761795755254507,2.229999999999995
3.875504712037325e-10,3.725304239026886e-05,0.0002987083602673751,0.002272142333682334,3.622954970349787e-123,2.1858097760886627e-08,0.0002490057426158726,0.7640884831027038,2.239999999999995
5.187767555821021e-10,4.2792783214669565e-05,0.000331907636953061,0.0024590249429236057,9.337472356242793e-122,2.7390174618050674e-08,0.00027726174272530205,0.7663525296835885,2.2499999999999947
6.908326115080616e-10,4.903410580885131e-05,0.00036812350142517394,0.002657633919980158,2.285499985021188e-120,3.418974326028408e-08,0.0003081502346544061,0.7685883064225615,2.2599999999999945
9.152829053989131e-10,5.604914633768245e-05,0.0004075617858690725,0.0028684355244840525,5.318283370180044e-119,4.251592232331533e-08,0.00034185701774088975,0.7707962189291946,2.2699999999999942
1.206637615894124e-09,6.391550125226463e-05,0.00045043664928152445,0.0030918989328570126,1.1777194569426431e-117,5.267412029339669e-08,0.00037857589780305464,0.7729766670443001,2.279999999999994
1.5830143849210277e-09,7.271645000381866e-05,0.0004969705305198448,0.0033284955253598926,2.484410461201981e-116,6.502302796885134e-08,0.0004185086795968602,0.7751300448890793,2.289999999999994
2.066929260802115e-09,8.254117150675688e-05,0.0005473940776776978,0.0035786981666101523,4.997312489637114e-115,7.998245228774822e-08,0.000461865137274377,0.7772567409161527,2.2999999999999936
2.686236006977545e-09,9.348495313475801e-05,0.0006019460537738955,0.0038429804820015938,9.593822879005098e-114,9.804206146198213e-08,0.000508862962653478,0.7793571379623013,2.3099999999999934
3.4752367628764334e-09,0.00010564939104689413,0.0006608732188531568,0.0041218161324145155,1.759500570833624e-112,1.1977111326303884e-07,0.000559727691214761,0.7814316133027472,2.319999999999993
4.475989408780508e-09,0.00011914258066278486,0.0007244301887080551,0.0044156780895486455,3.0854645011909053e-111,1.4582923980535577e-07,0.0006146926058468528,0.7834805387068134,2.329999999999993
5.739839694325036e-09,0.0001340792961360659,0.0007928792705382642,0.00472503791414401,5.178055426534855e-110,1.7697836322236328e-07,0.0006739986184644483,0.78550428049482,2.3399999999999928
7.3292090274952605e-09,0.00015058115771392073,0.0008664902759665452,0.0050503650392807,8.323391847652517e-109,2.1409581718338042e-07,0.0007378941297244002,0.7875031995960715,2.3499999999999925
9.319671771165618e-09,0.00016877678591655507,0.0009455403119295187,0.005392126060864389,1.2825821321114698e-107,2.581887492146211e-07,0.0008066348671627914,0.7894776516078096,2.3599999999999923
1.1802358937554988e-08,0.00018880194152393485,0.0010303135500550648,0.005750784037314233,1.8961659948472667e-106,3.1040987822648196e-07,0.0008804837021699804,0.791427986855003,2.369999999999992
1.4886728284157025e-08,0.0002107996504172393,0.0011211009752266036,0.006126797800373897,2.6916627218082345e-105,3.720746804783138e-07,0.0009597104463105145,0.7933545504508658,2.379999999999992
1.8703743971117895e-08,0.00023492031238885386,0.0012182001141169316,0.006520621278863796,3.6716116133750696e-104,4.4468007540161976e-07,0.001044591627579898,0.79525768235799,2.3899999999999917
2.340951210976097e-08,0.0002613217931065855,0.0013219147445506882,0.0069327028370873905,4.816321294035447e-103,5.299246802299861e-07,0.0011354102472703556,0.7971377174499957,2.3999999999999915
2.9189421682039468e-08,0.00029016949849465214,0.001432554586624497,0.007363484629494518,6.080228970881227e-102,6.297306992308802e-07,0.0012324555181924635,0.7989949855736033,2.4099999999999913
3.6262843405311265e-08,0.00032163643087505545,0.0015504349765768988,0.007813401973092094,7.392407113460869e-101,7.462675094896082e-07,0.0013360225850683435,0.8008298116110361,2.419999999999991
4.488844211764949e-08,0.00035590322629757597,0.0016758765244570591,0.00828288273897975,8.662070471025071e-100,8.819770006547073e-07,0.0014464122279754825,0.8026425155426766,2.429999999999991
5.5370161125459516e-08,0.00039315817257416845,0.0018092047566904395,0.008772346764271105,9.788785701191486e-99,1.0396007208181746e-06,0.0015639305497768612,0.8044334125098944,2.4399999999999906
6.806393964526206e-08,0.0004335972076232326,0.001950749744682692,0.009282205285547466,1.0675831469715388e-97,1.2222088747836994e-06,0.0016888886485240929,0.8062028128779745,2.4499999999999904
8.338522694163626e-08,0.0004774238978202886,0.0021008457206385354,0.00981286039487376,1.1244190653135031e-96,1.4332312143860275e-06,0.0018216022758644477,0.8079510222990813,2.45999999999999
1.018173589694279e-07,0.0005248493961436602,0.0022598306818017847,0.010364704519293775,1.144430993401636e-95,1.6764898532899172e-06,0.0019623914825211072,0.809678341775193,2.46999999999999
1.239208652259669e-07,0.0005760923799957451,0.0024280459843445835,0.010938119924607062,1.1263177297405767e-94,1.9562340308461876e-06,0.0021115802519474742,0.8113850677209501,2.4799999999999898
1.5034377506438868e-07,0.000631378968672027,0.002605835928149903,0.011533478244119596,1.072533692041713e-93,2.277176841153281e-06,0.002269496123282214,0.8130714920263622,2.4899999999999896
1.818329938693057e-07,0.0006909426205403964,0.0027935473337407754,0.012151140032951615,9.887864119005237e-93,2.644533934508546e-06,0.0024364698047512523,0.8147379021193251,2.4999999999999893
2.1924682020983128e-07,0.0007550240100820955,0.0029915291126128086,0.012791454348379474,8.830646905358232e-92,3.0640641889827155e-06,0.0026128347786763544,0.8163845810278992,2.509999999999989
2.635686753232947e-07,0.0008238708850320029,0.0032001318322241058,0.013454758356586166,7.64420457825981e-91,3.542112339969573e-06,0.0027989268992578806,0.818011807442309,2.519999999999989
3.159221160098562e-07,0.0008977379039397113,0.0034197072768882898,0.014141376966095439,6.417524789423475e-90,4.085653545309544e-06,0.002995083984301364,0.8196198557766204,2.5299999999999887
3.775872012009136e-07,0.0009768864545533274,0.0036506080058030022,0.014851622488069318,5.228036347444926e-89,4.702339853025839e-06,0.0032016454020545974,0.8212089962300633,2.5399999999999885
4.5001828107402333e-07,0.001061584453504788,0.0038931869094275566,0.015585794323557044,4.1350473407615287e-88,5.40054852791218e-06,0.0034189516543135768,0.8227794948479608,2.5499999999999883
5.348632755997914e-07,0.0011521061278483328,0.004147796765400295,0.016344178677696355,3.1770433777612035e-87,6.18943218224378e-06,0.0036473439569426444,0.8243316135822385,2.559999999999988
6.339845068025258e-07,0.001248731779072249,0.00441478979515887,0.017127048300785517,2.3724196015470475e-86,7.078970644821961e-06,0.0038871638189368115,0.8258656103514834,2.569999999999988
7.494811457825251e-07,0.001351747530267954,0.004694517222394782,0.017934662256064725,1.722684015534133e-85,8.08002449148016e-06,0.004138752621132061,0.8273817391005238,2.5799999999999876
8.837133316754612e-07,0.001461445057199622,0.004987328834439142,0.018767265713974263,1.2169726575202235e-84,9.204390149158106e-06,0.0044024511956444025,0.8288802498595121,2.5899999999999874
1.0393280152106105e-06,0.0015781213040713955,0.005293572547637486,0.019625089772584932,8.368117772573228e-84,1.0464856474757495e-05,0.00467859940708846,0.8303613888024828,2.599999999999987
1.2192865743794004e-06,0.0017020781848383817,0.0056135939777309475,0.02050835130383364,5.603413785955813e-83,1.187526269931409e-05,0.004967535736594463,0.8318253983053703,2.609999999999987
1.4268942439475987e-06,0.0018336222709509696,0.005947736016216666,0.021417252825136342,3.655588798893994e-82,1.3450557617623022e-05,0.0052695968696064195,0.8332725170034664,2.619999999999987
1.6658313941560147e-06,0.0019730644664605035,0.00629633841361512,0.022351982395896225,2.3245517292606675e-81,1.5206859893416683e-05,0.005585117288406906,0.8347029798483029,2.6299999999999866
1.9401866869772078e-06,0.0021207196714471506,0.006659737370523242,0.023312713538373595,1.441423664604403e-80,1.7161519340580286e-05,0.005914428870272525,0.8361170181639438,2.6399999999999864
2.2544921307587e-06,0.0022769064347584822,0.0070382651372834565,0.024299605182338323,8.719746974656175e-80,1.9333179031774942e-05,0.006257860492122335,0.8375148597026751,2.649999999999986
2.613760046020745e-06,0.002441946597069688,0.007432249623047914,0.02531280163288443,5.148268559424979e-79,2.174183807727848e-05,0.006615737642477151,0.8388967287000809,2.659999999999986
3.0235219466284257e-06,0.002616164925293291,0.007842014014965341,0.026352432560748686,2.9678707084493485e-78,2.4408914908911453e-05,0.006988382041501879,0.8402628459294951,2.6699999999999857
3.4898693315704234e-06,0.002799888739378619,0.008267876408166319,0.02741861301444287,1.671217022817176e-77,2.7357310896648973e-05,0.0073761112698568386,0.841613428755822,2.6799999999999855
4.019496373198839e-06,0.0029934475325482895,0.008710149447168993,0.028511443453478703,9.195995318285912e-77,3.061147411896503e-05,0.007779238407035498,0.8429486911887156,2.6899999999999853
4.619744478071307e-06,0.0031971725860212687,0.009169139979276257,0.02963100980194247,4.946670468488393e-76,3.419746310218001e-05,0.008198071679819393,0.8442688439351146,2.699999999999985
5.298648686547963e-06,0.0034113965792701875,0.009645148720480974,0.03077738352165217,2.6022102625410485e-75,3.8143010339097265e-05,0.008632914121430914,0.8455740944511251,2.709999999999985
6.0649858670912e-06,0.0036364531968538123,0.010138469934344864,0.0319506217041143,1.3392151403937967e-74,4.247758539307316e-05,0.009084063241917139,0.8468646469932484,2.7199999999999847
6.92832465086197e-06,0.0038726767328548226,0.010649391124264383,0.03315076718048292,6.745232528106803e-74,4.723245739038481e-05,0.009551810710248923,0.8481407026689504,2.7299999999999844
7.899077041770794e-06,0.0041204016939388995,0.011178192739486274,0.03437784864871312,3.3261275353572885e-73,5.244075670136147e-05,0.010036442048571412,0.8494024594865701,2.7399999999999842
8.988551626688271e-06,0.004379962402032262,0.011725147895185554,0.03563188081709302,1.6063118686992615e-72,5.813753560924454e-05,0.010538236338994669,0.8506501124045664,2.749999999999984
1.0209008300124102e-05,0.004651692597593503,0.012290522106869107,0.036912864563333946,7.600117925501943e-72,6.4359827765139e-05,0.011057465943265322,0.8518838533800991,2.759999999999984
1.1573714407410934e-05,0.004935925044430665,0.012874573039321763,0.03822078710839739,3.5241772536720497e-71,7.114670622773855e-05,0.011594396235615364,0.8531038714169504,2.7699999999999836
1.3097002200350347e-05,0.005232991136986797,0.013477550270264108,0.03955562220423664,1.6020888640877206e-70,7.853933988770517e-05,0.012149285349037668,0.8543103526127809,2.7799999999999834
1.479432748945978e-05,0.005543220510986658,0.01409969506884781,0.040917330334636744,7.142471342931075e-70,8.658104807869912e-05,0.01272238393519513,0.8555034802057249,2.789999999999983
1.6682329367471855e-05,0.005866940658304947,0.014741240189069173,0.042305858928337416,3.1237929110010396e-69,9.531735318001417e-05,0.013313934938125651,0.8566834346203253,2.799999999999983
1.8778890869639935e-05,0.006204476546881309,0.015402409678143474,0.04372114258363863,1.340675906274207e-68,0.00010479603101963938,0.013924173381866928,0.8578503935128132,2.8099999999999827
2.1103200427761652e-05,0.006556150246470823,0.016083418699838505,0.0451631033036891,5.648154116224576e-68,0.00011506715889119556,0.01455332617208099,0.8590045318157296,2.8199999999999825
2.367581396670354e-05,0.006922280560980505,0.016784473372732076,0.046631650741677355,2.3364749414431112e-67,0.00012618316100368272,0.015201611911723763,0.860146021781897,2.8299999999999823
2.6518717484647902e-05,0.007303182668102734,0.017505770623319036,0.0481266824551529,9.493266929296136e-67,0.00013819885118919155,0.015869240730765406,0.8612750330277443,2.839999999999982
2.9655389951341488e-05,0.00769916776691615,0.018247498053861257,0.049648084168722,3.789621552638505e-66,0.0001511714727006879,0.016556414129933625,0.8623917325759849,2.849999999999982
3.3110866352343265e-05,0.008110542734082422,0.01900983382484043,0.05119573004437735,1.486704755072629e-65,0.00016516073493961066,0.01726332483841756,0.8634962848976583,2.8599999999999817
3.691180070170099e-05,0.00853760978922601,0.019792946551844125,0.052769482958738456,5.733543562436747e-65,0.00018022884696129518,0.017990156685438814,0.8645888519535342,2.8699999999999815
4.108652884065232e-05,0.008980666170040822,0.02059699521668638,0.05436919478649683,2.174249681149939e-64,0.00019644054761510534,0.018737084485565415,0.8656695932348883,2.8799999999999812
4.5665130835892295e-05,0.009440003817625312,0.02142212909253876,0.055994706689380974,8.109605946958399e-64,0.00021386313218555656,0.01950427393761731,0.8667386658036532,2.889999999999981
5.067949278768833e-05,0.00991590907250437,0.022268487682821903,0.05764584940997328,2.9758293032841665e-63,0.00023256647541059053,0.02029188153698405,0.8677962243319491,2.899999999999981
5.616336785569034e-05,0.010408662381754202,0.023136200673586165,0.05932244356973326,1.0745977063875265e-62,0.0002526230507635018,0.021100054501151815,0.8688424211410024,2.9099999999999806
6.215243630867572e-05,0.010918538017603681,0.024025387899087938,0.06102429997060169,3.819644959730202e-62,0.00027410794589569494,0.021928930708212776,0.8698774062394559,2.9199999999999804
6.868436440371096e-05,0.011445803807844022,0.024936159320251332,0.06275121989958372,1.336739414335884e-61,0.000297098874148514,0.022778638648110208,0.8709013273610776,2.92999999999998
7.579886190029905e-05,0.011990720878337614,0.02586861501568535,0.06450299543572746,4.607046686155525e-61,0.0003216761820536283,0.023649297386351246,0.8719143300018751,2.93999999999998
8.353773801600212e-05,0.01255354340787545,0.026822845184912576,0.06627940975893887,1.5640621697260178e-60,0.00034792285275298744,0.024541016539902212,0.8729165574566201,2.9499999999999797
9.194495563181671e-05,0.013134518395594735,0.027798930163452095,0.06808023746009685,5.231695187477379e-60,0.0003759245052810276,0.025453896264965786,0.873908150854791,2.9599999999999795
0.00010106668355815311,0.013733885441127934,0.028796940449386743,0.06990524485195351,1.7245963043752448e-59,0.00040576938966355657,0.026388027256323915,0.8748892491959414,2.9699999999999793
0.0001109513466756854,0.014351876537618137,0.02981693674103395,0.07175419028032605,5.603853511174683e-59,0.00043754837779954545,0.027343490757917113,0.8758599893844969,2.979999999999979
0.00012164967376952005,0.014988715877698847,0.030858969985331358,0.07362682443511243,1.795296909022354e-58,0.0004713549501038876,0.028320358584319895,0.8768205062639934,2.989999999999979
0.0001332147428800855,0.015644619672501407,0.031923081436541434,0.07552289066068225,5.6719197101320404e-58,0.0005072851779009301,0.029318693152762504,0.877770932650757,2.9999999999999787
0.00014583317667256704,0.016324371367969652,0.033031197865478666,0.07748064771646149,1.8561412853764893e-57,0.0005463509742814174,0.03035966378407322,0.8787361941094921,3.0099999999999785
0.0001594529635210603,0.01702387648994376,0.0341624149910094,0.0794623533634322,5.986543544344979e-57,0.0005878554434562388,0.031423166289073226,0.8796911840590753,3.0199999999999783
0.00017413652565666796,0.017743331669203867,0.03531675028927137,0.08146771791887059,1.903370900776477e-56,0.00063191039924148,0.03250924152056808,0.8806360367581582,3.029999999999978
